Soda-Lime Glass (SiO2) Density=2.5 g/cm^3
 Energy(eV), Delta, Beta
  30.  0.127162531  0.186101526
  30.4181843  0.12600854  0.18175523
  30.8421955  0.124846086  0.17751044
  31.2721214  0.123671696  0.173365518
  31.7080383  0.122501224  0.169328555
  32.150032  0.12134964  0.165411606
  32.5981827  0.120225519  0.161587939
  33.0525818  0.119130112  0.157852694
  33.5133171  0.118067503  0.154203981
  33.9804764  0.117045231  0.150639772
  34.4541473  0.116073668  0.147158056
  34.9344177  0.115175545  0.143756896
  35.4213829  0.1144256  0.140434444
  35.9151382  0.113905519  0.137188926
  36.4157791  0.11363057  0.133450344
  36.9233932  0.11313691  0.129389107
  37.4380875  0.112224892  0.125333548
  37.9599533  0.111124039  0.121405974
  38.4890938  0.109901547  0.11760249
  39.0256119  0.108586565  0.113918848
  39.5696068  0.107217446  0.110342681
  40.1211853  0.105797723  0.106866404
  40.6804543  0.104331516  0.103494965
  41.2475166  0.102829486  0.10023015
  41.8224831  0.101304598  0.0970684364
  42.405468  0.0997635573  0.0940069333
  42.9965744  0.0982105285  0.091042079
  43.5959282  0.0966531634  0.0881709605
  44.2036324  0.0950975865  0.0853906795
  44.8198051  0.0935487822  0.0826982409
  45.4445686  0.0920120254  0.0800909027
  46.0780411  0.0904928893  0.0775649771
  46.7203445  0.0889972374  0.0751156732
  47.3715973  0.0875347108  0.0727421716
  48.0319328  0.0861364529  0.0704438463
  48.7014732  0.084855862  0.0681281015
  49.3803444  0.0835392177  0.0657077283
  50.0686798  0.0821209624  0.0632803738
  50.7666092  0.0806177258  0.0609430857
  51.4742699  0.0790759996  0.0586925
  52.1917915  0.0775092915  0.0565253943
  52.9193192  0.0759244338  0.0544430651
  53.6569862  0.0743399113  0.0524465404
  54.4049339  0.0727614611  0.0505258255
  55.163311  0.0711911991  0.0486762002
  55.9322586  0.0696306378  0.0468949862
  56.7119217  0.0680815876  0.0451796353
  57.5024567  0.0665451735  0.0435278006
  58.3040123  0.0650172234  0.041937042
  59.1167336  0.0634961203  0.0404050127
  59.9407921  0.0619942993  0.0389490612
  60.7763329  0.0605200604  0.0375567861
  61.6235237  0.0590749756  0.036217615
  62.4825172  0.0576570518  0.0349281058
  63.3534927  0.0562656373  0.0336864814
  64.2366028  0.0549013875  0.0324908718
  65.1320343  0.0535736568  0.0313376114
  66.0399323  0.0522651784  0.030205749
  66.960495  0.0509727485  0.0291088037
  67.8938904  0.049699109  0.0280522648
  68.8402939  0.048448842  0.027034618
  69.7998886  0.0472256392  0.0260519106
  70.7728577  0.0460320078  0.0250872485
  71.7593994  0.0448381528  0.0241337158
  72.7596817  0.0436511151  0.02321559
  73.7739182  0.0424807258  0.0223325528
  74.8022842  0.0413312539  0.0214719754
  75.844986  0.0401921272  0.020627778
  76.9022217  0.0390456915  0.0198065788
  77.9741974  0.0378922187  0.0190197565
  79.0611115  0.0367364287  0.0182666443
  80.1631851  0.0355886295  0.0175807159
  81.2806168  0.0344663151  0.0169269498
  82.4136276  0.0333646163  0.0162974969
  83.5624237  0.0322720185  0.0156919472
  84.7272415  0.0311832447  0.0151142674
  85.9082947  0.0301071089  0.0145748435
  87.1058121  0.0290475916  0.0140551589
  88.320015  0.0279892962  0.0135545116
  89.5511475  0.0269283075  0.013072188
  90.7994385  0.0258565415  0.0126089724
  92.0651398  0.0247658789  0.0121659162
  93.3484802  0.0236450192  0.0117421085
  94.649704  0.0224739015  0.0113339107
  95.9690704  0.0211979281  0.0109407762
  97.3068314  0.019673042  0.0105648059
  98.6632385  0.0174165778  0.0102001214
  100.038544  0.0132347047  0.0127441082
  101.433029  0.0176208038  0.0171787832
  102.846954  0.0181720275  0.0142146321
  104.280579  0.0171791315  0.0130099049
  105.734192  0.0155574027  0.013285026
  107.208076  0.0155144017  0.0139679275
  108.702492  0.0154187428  0.0140493186
  110.217751  0.0149737  0.0139442505
  111.754128  0.0147106852  0.0141190002
  113.311913  0.0144461263  0.0141009958
  114.891418  0.014023466  0.0142171476
  116.492943  0.0138558457  0.0146151446
  118.116798  0.0140287541  0.0149090895
  119.763275  0.0142881302  0.0147946598
  121.432716  0.0143080391  0.0146818757
  123.125427  0.0144613693  0.0144432858
  124.841721  0.0145035759  0.0141444234
  126.581955  0.0144058662  0.0138742933
  128.346436  0.0143321827  0.0136546334
  130.135513  0.0143156424  0.0135128228
  131.949539  0.0144733693  0.0133451102
  133.788834  0.0147534572  0.0129301408
  135.653778  0.0147466697  0.0121465102
  137.544724  0.0144050922  0.0114981085
  139.462021  0.0140064573  0.0111898435
  141.406052  0.0137703903  0.0109238531
  143.377167  0.0134384194  0.0106098317
  145.375778  0.0131735336  0.0104815597
  147.402222  0.0130239222  0.0102931717
  149.45694  0.0128905894  0.0100246845
  151.540268  0.0126263015  0.00993587635
  153.652664  0.0127996141  0.00956272241
  155.794495  0.0123965982  0.00907498598
  157.966202  0.0120462244  0.00894321036
  160.168167  0.0118780211  0.00884833466
  162.400818  0.0117160426  0.00880797207
  164.664597  0.0117076496  0.00869940314
  166.95993  0.0116905617  0.00846283976
  169.287262  0.0117715104  0.00830177683
  171.647034  0.0118797421  0.00790422037
  174.039703  0.0118151121  0.00737497071
  176.465729  0.0115367034  0.00689838314
  178.925552  0.0112182293  0.00656060502
  181.419678  0.0109532988  0.00633797375
  183.948563  0.0107608596  0.00610140478
  186.512726  0.0105223292  0.0058698589
  189.112595  0.010304587  0.00564631773
  191.748734  0.0100915544  0.00542793609
  194.4216  0.00988004729  0.00521829026
  197.131729  0.00967047922  0.00501697371
  199.879639  0.00946200266  0.00482365442
  202.665863  0.00925458036  0.0046399557
  205.490906  0.00905031152  0.00446644984
  208.355347  0.00885216147  0.00430134032
  211.259705  0.00865920354  0.00414256798
  214.204544  0.00847069919  0.00398988463
  217.190445  0.00828903075  0.00384303043
  220.217957  0.00811383128  0.00370018068
  223.287674  0.00794150401  0.00355569902
  226.400192  0.0077688545  0.00341099082
  229.556091  0.0075951335  0.00327226054
  232.755981  0.00742234755  0.0031392579
  236.000458  0.0072511076  0.00301176868
  239.290176  0.00708084693  0.00289007463
  242.625763  0.00691431668  0.00277505536
  246.007828  0.00675279181  0.0026648799
  249.437057  0.00659526279  0.00255747745
  252.914062  0.00643991446  0.00245184731
  256.439545  0.00628582854  0.00235011545
  260.01416  0.00613378268  0.00225261133
  263.638641  0.00598414522  0.00215916871
  267.313599  0.00583717041  0.0020696104
  271.039825  0.00569297047  0.00198377552
  274.817963  0.00555157801  0.00190147443
  278.648773  0.00541298836  0.00182253926
  282.53299  0.00527720293  0.00174683647
  286.471375  0.00514421333  0.00167425408
  290.4646  0.00501405355  0.00160469487
  294.513519  0.00488699228  0.00153803243
  298.618896  0.00476282137  0.00147354486
  302.781494  0.00464119064  0.00141109107
  307.002106  0.00452180533  0.00135092717
  311.281525  0.00440458255  0.00129333651
  315.620605  0.00428977562  0.00123820629
  320.020203  0.00417733891  0.00118542754
  324.48111  0.00406734925  0.00113490596
  329.004181  0.00395980524  0.00108654285
  333.590363  0.00385468593  0.00104024366
  338.240417  0.00375197968  0.000995921553
  342.955322  0.00365167228  0.000953491952
  347.735901  0.00355373626  0.000912873074
  352.58316  0.00345817907  0.000873989076
  357.497986  0.00336505263  0.000836763589
  362.481323  0.00327467686  0.000801128161
  367.534119  0.00318676769  0.000765731558
  372.657349  0.00310049742  0.000730755564
  377.85199  0.00301527069  0.000697062467
  383.119019  0.00293128821  0.000664919091
  388.459473  0.00284891343  0.000634240336
  393.87439  0.00276812073  0.000604940462
  399.364807  0.00268889335  0.0005769899
  404.931732  0.00261127041  0.000550329161
  410.576233  0.00253522699  0.000524898409
  416.299469  0.00246072887  0.000500642811
  422.102448  0.00238772924  0.00047750969
  427.986359  0.00231617363  0.000455445756
  433.95224  0.00224598544  0.000434401765
  440.001282  0.002176977  0.000414329203
  446.134674  0.00210918928  0.000395184878
  452.353577  0.00204253616  0.000376927142
  458.659119  0.00197693054  0.000359481142
  465.052582  0.00191221863  0.000342711719
  471.535156  0.00184809125  0.000326433394
  478.108093  0.00178420986  0.000310928095
  484.772644  0.00172003894  0.000296159356
  491.530151  0.00165531866  0.00028209298
  498.381775  0.0015894887  0.000268695381
  505.328979  0.0015215684  0.00025593274
  512.372986  0.00144994585  0.00024377559
  519.515198  0.00137169892  0.000232197141
  526.756958  0.00128099904  0.000221168564
  534.09967  0.00115745224  0.000210664497
  541.544739  0.000556201732  0.000200659182
  549.093506  0.000933501637  0.00066298747
  556.74762  0.0011536493  0.00063184218
  564.508362  0.00119849073  0.000602176704
  572.377319  0.00121598819  0.000573992322
  580.355957  0.0012201519  0.000547301141
  588.445801  0.00121623313  0.000521745824
  596.648438  0.00120673573  0.00049733161
  604.965332  0.00119383493  0.000474040251
  613.398315  0.00117843982  0.000451837375
  621.948669  0.001161222  0.000430662563
  630.618347  0.0011426931  0.000410380628
  639.408813  0.00112319645  0.000390820816
  648.321838  0.00110281969  0.000371895352
  657.35907  0.00108132546  0.000353663781
  666.522278  0.00105913752  0.000336325029
  675.813293  0.00103645667  0.000320237014
  685.233704  0.00101374032  0.000305316615
  694.785522  0.000991330831  0.000291338016
  704.470398  0.00096936943  0.000278054329
  714.290344  0.000947773573  0.000265120878
  724.247192  0.000926125213  0.00025256013
  734.342834  0.000904603512  0.000240602996
  744.579163  0.000883319415  0.000229210316
  754.958191  0.000862314308  0.000218353234
  765.481934  0.00084163429  0.00020799374
  776.152344  0.000821306545  0.000198077207
  786.971436  0.000801314774  0.000188544771
  797.941406  0.000781597977  0.000179364026
  809.06427  0.000762115  0.000170566593
  820.342224  0.000742916774  0.000162184617
  831.777283  0.000724026351  0.000154214387
  843.371826  0.000705452461  0.000146671111
  855.127991  0.000687218155  0.000139560172
  867.047974  0.000669378089  0.000132856338
  879.134155  0.000651987153  0.000126529354
  891.388855  0.000635030447  0.000120503719
  903.814331  0.000618504826  0.000114727794
  916.413025  0.000602374319  0.000109195425
  929.187317  0.000586613198  0.000103847888
  942.139648  0.000571193756  9.86900341E-05
  955.272583  0.000556077168  9.37639561E-05
  968.588562  0.000541267509  8.90636584E-05
  982.09021  0.000526770542  8.45985051E-05
  995.779968  0.00051259785  8.03594085E-05
  1009.66058  0.000498752692  7.63349162E-05
  1023.7348  0.000485239987  7.2525334E-05
  1038.005  0.000472063635  6.89094377E-05
  1052.47424  0.00045921444  6.54612159E-05
  1067.14514  0.000446665072  6.21735308E-05
  1082.02051  0.000434409943  5.90506243E-05
  1097.10339  0.000422443904  5.61066627E-05
  1112.39636  0.000410790672  5.33277671E-05
  1127.90259  0.000399447803  5.06940996E-05
  1143.62488  0.000388401822  4.81905845E-05
  1159.56641  0.000377642951  4.58105351E-05
  1175.73022  0.000367163593  4.35475959E-05
  1192.11926  0.000356957287  4.13962916E-05
  1208.73682  0.000347014458  3.9350758E-05
  1225.58594  0.000337331789  3.74058909E-05
  1242.66992  0.000327903515  3.55541706E-05
  1259.99194  0.00031872245  3.37903912E-05
  1277.55554  0.000309779367  3.21097141E-05
  1295.36401  0.00030106536  3.05084959E-05
  1313.42078  0.000292571494  2.8985718E-05
  1331.72913  0.000284294627  2.75390576E-05
  1350.29272  0.000276231178  2.61643636E-05
  1369.11511  0.000268375268  2.48584911E-05
  1388.19983  0.000260721019  2.36176929E-05
  1407.55054  0.000253262348  2.24382311E-05
  1427.17102  0.000245993346  2.13172152E-05
  1447.06506  0.000238905792  2.02521824E-05
  1467.23621  0.000231995044  1.92392999E-05
  1487.68884  0.000225253854  1.82751246E-05
  1508.42639  0.000218675137  1.73514854E-05
  1529.453  0.000212247789  1.64705652E-05
  1550.77271  0.000205963312  1.56340138E-05
  1572.38977  0.000199815186  1.48398503E-05
  1594.30786  0.000193790824  1.40857519E-05
  1616.53174  0.000187872633  1.33699523E-05
  1639.06531  0.000182052288  1.26906325E-05
  1661.91296  0.000176310699  1.20456907E-05
  1685.0791  0.000170621555  1.14335016E-05
  1708.56824  0.000164948491  1.08524182E-05
  1732.38477  0.000159236297  1.02997292E-05
  1756.53333  0.000153388231  9.77134368E-06
  1781.01831  0.000147037557  9.26897337E-06
  1805.84485  0.000139383599  8.79154322E-06
  1831.01721  0.000111418129  8.33857939E-06
  1856.54065  0.000129307795  2.66668121E-05
  1882.41992  0.000130983448  2.54110109E-05
  1908.65979  0.000130521381  2.42143306E-05
  1935.2655  0.000128969565  2.30740243E-05
  1962.24194  0.000126929241  2.19874692E-05
  1989.59473  0.000124624203  2.09516693E-05
  2017.32861  0.000122167039  1.99643928E-05
  2045.44897  0.000119612145  1.90204228E-05
  2073.96143  0.000117007781  1.81199266E-05
  2102.87134  0.000114385657  1.72545388E-05
  2132.18433  0.000111760652  1.64270987E-05
  2161.90576  0.000109144654  1.563775E-05
  2192.0415  0.000106547319  1.48844101E-05
  2222.59741  0.000103976221  1.41654273E-05
  2253.57935  0.000101435689  1.34801876E-05
  2284.99292  9.89286855E-05  1.28262709E-05
  2316.84448  9.64628271E-05  1.22025958E-05
  2349.13989  9.40393802E-05  1.16082547E-05
  2381.8855  9.16600475E-05  1.10416131E-05
  2415.08789  8.93262113E-05  1.05014124E-05
  2448.75293  8.70386066E-05  9.98684936E-06
  2482.88721  8.47979463E-05  9.49646346E-06
  2517.49707  8.26028772E-05  9.02911688E-06
  2552.58984  8.04556257E-05  8.58425028E-06
  2588.17163  7.83560827E-05  8.16034753E-06
  2624.24927  7.63037315E-05  7.75668286E-06
  2660.82983  7.42983539E-05  7.37250548E-06
  2697.92041  7.23396952E-05  7.00674582E-06
  2735.52783  7.04272024E-05  6.65822427E-06
  2773.65967  6.85596096E-05  6.32671845E-06
  2812.323  6.67367276E-05  6.01126067E-06
  2851.52539  6.49582871E-05  5.71100145E-06
  2891.27393  6.32235315E-05  5.42533053E-06
  2931.57666  6.15316021E-05  5.15351439E-06
  2972.44141  5.98817605E-05  4.8948832E-06
  3013.87549  5.82735192E-05  4.64901723E-06
  3055.88745  5.67056595E-05  4.4151252E-06
  3098.48486  5.51773155E-05  4.19260095E-06
  3141.67603  5.36879561E-05  3.98110024E-06
  3185.46924  5.22367518E-05  3.77996275E-06
  3229.8728  5.08230405E-05  3.58871057E-06
  3274.89575  4.9446011E-05  3.40695283E-06
  3320.54614  4.81048155E-05  3.23417839E-06
  3366.83252  4.67983737E-05  3.06986794E-06
  3413.7644  4.5526016E-05  2.91378797E-06
  3461.35059  4.42870914E-05  2.76544256E-06
  3509.59961  4.30808323E-05  2.6244636E-06
  3558.52148  4.19064563E-05  2.49054028E-06
  3608.12549  4.07632433E-05  2.36329834E-06
  3658.4209  3.96503929E-05  2.24234532E-06
  3709.41724  3.8567141E-05  2.12750365E-06
  3761.12451  3.75126583E-05  2.01843454E-06
  3813.55249  3.64863736E-05  1.91478193E-06
  3866.71143  3.54876393E-05  1.81637131E-06
  3920.61133  3.45156877E-05  1.72291698E-06
  3975.26221  3.35698569E-05  1.63416371E-06
  4030.67554  3.2649521E-05  1.54986685E-06
  4086.86084  3.17540253E-05  1.46988498E-06
  4143.82959  3.08826675E-05  1.39392853E-06
  4201.59229  3.00348202E-05  1.32186278E-06
  4260.16016  2.9210014E-05  1.25346969E-06
  4319.54443  2.84075995E-05  1.18855485E-06
  4379.75635  2.76269693E-05  1.12695545E-06
  4440.80811  2.6867574E-05  1.06850541E-06
  4502.71045  2.61289097E-05  1.01303465E-06
  4565.47559  2.54102961E-05  9.60406851E-07
  4629.11572  2.47112966E-05  9.1047815E-07
  4693.64355  2.40314021E-05  8.63094101E-07
  4759.07031  2.33701103E-05  8.18151193E-07
  4825.40918  2.27268574E-05  7.75527894E-07
  4892.67285  2.21012251E-05  7.35098126E-07
  4960.87402  2.14927895E-05  6.96749112E-07
  5030.02588  2.0901005E-05  6.60383648E-07
  5100.14209  2.03253785E-05  6.25862015E-07
  5171.23486  1.97656136E-05  5.9313453E-07
  5243.31885  1.92211846E-05  5.62110301E-07
  5316.4082  1.86916968E-05  5.32687466E-07
  5390.51611  1.81768009E-05  5.04786328E-07
  5465.65723  1.76760805E-05  4.78332652E-07
  5541.84521  1.71891097E-05  4.53244979E-07
  5619.09521  1.67155486E-05  4.29457572E-07
  5697.42285  1.62549804E-05  4.06906878E-07
  5776.8418  1.58071216E-05  3.85528665E-07
  5857.36768  1.53715864E-05  3.65264697E-07
  5939.01611  1.49480466E-05  3.46054691E-07
  6021.80273  1.45361892E-05  3.27840127E-07
  6105.74316  1.41356941E-05  3.10577121E-07
  6190.85449  1.37462484E-05  2.94216477E-07
  6277.15186  1.3367523E-05  2.78711468E-07
  6364.65137  1.29992604E-05  2.6401716E-07
  6453.37158  1.2641106E-05  2.50074436E-07
  6543.32812  1.22928586E-05  2.36876744E-07
  6634.53809  1.1954231E-05  2.24368591E-07
  6727.02051  1.16249521E-05  2.12509875E-07
  6820.7915  1.13047663E-05  2.01273664E-07
  6915.86914  1.09934026E-05  1.90628768E-07
  7012.27295  1.069063E-05  1.80541861E-07
  7110.02002  1.0396222E-05  1.70983597E-07
  7209.12988  1.01099222E-05  1.61928284E-07
  7309.62109  9.83154496E-06  1.53349347E-07
  7411.51318  9.56082749E-06  1.45219616E-07
  7514.82617  9.29759972E-06  1.37517603E-07
  7619.57861  9.04163608E-06  1.30222375E-07
  7725.79102  8.7927483E-06  1.2331131E-07
  7833.48438  8.55072994E-06  1.16763758E-07
  7942.67969  8.31536909E-06  1.10562326E-07
  8053.396  8.08652203E-06  1.04688297E-07
  8165.65625  7.86400688E-06  9.91231985E-08
  8279.48047  7.64760807E-06  9.3852357E-08
  8394.89258  7.4371992E-06  8.88598137E-08
  8511.91211  7.23259336E-06  8.41313721E-08
  8630.56348  7.03362366E-06  7.96531765E-08
  8750.86914  6.84015276E-06  7.54118616E-08
  8872.85156  6.65202742E-06  7.13950854E-08
  8996.53418  6.46908302E-06  6.75919054E-08
  9121.94141  6.29118222E-06  6.39890274E-08
  9249.0957  6.11819405E-06  6.05777117E-08
  9378.02344  5.94997346E-06  5.73478971E-08
  9508.74805  5.78639401E-06  5.42892487E-08
  9641.29492  5.62733112E-06  5.13926786E-08
  9775.68848  5.47265927E-06  4.8650282E-08
  9911.95703  5.32224431E-06  4.60536675E-08
  10050.125  5.17598392E-06  4.35948841E-08
  10190.2178  5.03375122E-06  4.12664782E-08
  10332.2637  4.89544072E-06  3.90621118E-08
  10476.29  4.76093965E-06  3.69750417E-08
  10622.3232  4.63014749E-06  3.49991431E-08
  10770.3926  4.50296966E-06  3.31287033E-08
  10920.5264  4.37927611E-06  3.13576791E-08
  11072.7529  4.25900271E-06  2.96815355E-08
  11227.1006  4.14204396E-06  2.80944068E-08
  11383.6006  4.02830983E-06  2.65921098E-08
  11542.2822  3.91770709E-06  2.51700687E-08
  11703.1748  3.81014547E-06  2.38239615E-08
  11866.3105  3.7055413E-06  2.25497363E-08
  12031.7207  3.60382069E-06  2.13436273E-08
  12199.4365  3.50490745E-06  2.02021244E-08
  12369.4902  3.40871952E-06  1.91216962E-08
  12541.9141  3.31517572E-06  1.80989481E-08
  12716.7412  3.22420192E-06  1.71309864E-08
  12894.0059  3.13573105E-06  1.62149583E-08
  13073.7412  3.04969763E-06  1.53480091E-08
  13255.9824  2.9660323E-06  1.45275747E-08
  13440.7637  2.88466549E-06  1.37509195E-08
  13628.1211  2.80554082E-06  1.30160629E-08
  13818.0889  2.72859484E-06  1.23206139E-08
  14010.7061  2.65376298E-06  1.16624026E-08
  14206.0068  2.58098612E-06  1.10396021E-08
  14404.0312  2.51020879E-06  1.04503126E-08
  14604.8164  2.44137914E-06  9.89252236E-09
  14808.3994  2.37444419E-06  9.36481914E-09
  15014.8203  2.30934711E-06  8.86538132E-09
  15224.1182  2.24604105E-06  8.39247871E-09
  15436.335  2.18447303E-06  7.94503574E-09
  15651.5098  2.12459713E-06  7.52164553E-09
  15869.6816  2.06636719E-06  7.12099224E-09
  16090.8965  2.00973545E-06  6.74191147E-09
  16315.1953  1.95466032E-06  6.38324327E-09
  16542.6191  1.90109688E-06  6.04382233E-09
  16773.2148  1.84900637E-06  5.72270409E-09
  17007.0254  1.79834547E-06  5.41889511E-09
  17244.0938  1.74907598E-06  5.13143661E-09
  17484.4668  1.70115959E-06  4.85946172E-09
  17728.1914  1.65455799E-06  4.60214267E-09
